 v-sweep         ID              Gm             
-5.00000000e-01  4.62593999e-10 -2.76599516e-09 
-4.90000000e-01  4.34934047e-10 -2.61148545e-09 
-4.80000000e-01  4.09598189e-10 -2.46455950e-09 
-4.70000000e-01  3.85693417e-10 -2.32491604e-09 
-4.60000000e-01  3.63148419e-10 -2.19226191e-09 
-4.50000000e-01  3.41894775e-10 -2.06631192e-09 
-4.40000000e-01  3.21866876e-10 -1.94678865e-09 
-4.30000000e-01  3.03001848e-10 -1.83342229e-09 
-4.20000000e-01  2.85239480e-10 -1.72595020e-09 
-4.10000000e-01  2.68522143e-10 -1.62411687e-09 
-4.00000000e-01  2.52794735e-10 -1.52767333e-09 
-3.90000000e-01  2.38004609e-10 -1.43637682e-09 
-3.80000000e-01  2.24101513e-10 -1.34999016e-09 
-3.70000000e-01  2.11037538e-10 -1.26828104e-09 
-3.60000000e-01  1.98767076e-10 -1.19102116e-09 
-3.50000000e-01  1.87246777e-10 -1.11798505e-09 
-3.40000000e-01  1.76435533e-10 -1.04894861e-09 
-3.30000000e-01  1.66294469e-10 -9.83687192e-10 
-3.20000000e-01  1.56786956e-10 -9.21973148e-10 
-3.10000000e-01  1.47878655e-10 -8.63572613e-10 
-3.00000000e-01  1.39537593e-10 -8.08241312e-10 
-2.90000000e-01  1.31734289e-10 -7.55719077e-10 
-2.80000000e-01  1.24441936e-10 -7.05722656e-10 
-2.70000000e-01  1.17636671e-10 -6.57936274e-10 
-2.60000000e-01  1.11297939e-10 -6.11999218e-10 
-2.50000000e-01  1.05409008e-10 -5.67489505e-10 
-2.40000000e-01  9.99576556e-11 -5.23902360e-10 
-2.30000000e-01  9.49370994e-11 -4.80621847e-10 
-2.20000000e-01  9.03472464e-11 -4.36883447e-10 
-2.10000000e-01  8.61963560e-11 -3.91724661e-10 
-2.00000000e-01  8.25032551e-11 -3.43919793e-10 
-1.90000000e-01  7.93002813e-11 -2.91893778e-10 
-1.80000000e-01  7.66371875e-11 -2.33608318e-10 
-1.70000000e-01  7.45863177e-11 -1.66411343e-10 
-1.60000000e-01  7.32494610e-11 -8.68379381e-11 
-1.50000000e-01  7.27669310e-11  9.65299637e-12 
-1.40000000e-01  7.33295806e-11  1.29027189e-10 
-1.30000000e-01  7.51947120e-11  2.79136174e-10 
-1.20000000e-01  7.87071308e-11  4.70327824e-10 
-1.10000000e-01  8.55042951e-11  7.16254813e-10 
-1.00000000e-01  9.41907459e-11  1.03494540e-09 
-9.00000000e-02  1.06524311e-10  1.45022197e-09 
-8.00000000e-02  1.23621007e-10  1.99358073e-09 
-7.00000000e-02  1.46960255e-10  2.70668293e-09 
-6.00000000e-02  1.78502275e-10  3.64465717e-09 
-5.00000000e-02  2.20843617e-10  4.88047800e-09 
-4.00000000e-02  2.77423295e-10  6.51077229e-09 
-3.00000000e-02  3.52796001e-10  8.66352077e-09 
-2.00000000e-02  4.52994328e-10  1.15082748e-08 
-1.00000000e-02  5.86009063e-10  1.52697125e-08 
 3.08780779e-16  7.62426163e-10  2.02456281e-08 
 1.00000000e-02  9.96271677e-10  2.68308083e-08 
 2.00000000e-02  1.30613266e-09  3.55487273e-08 
 3.00000000e-02  1.71664454e-09  4.70936247e-08 
 4.00000000e-02  2.26046489e-09  6.23863749e-08 
 5.00000000e-02  2.98089326e-09  8.26486748e-08 
 6.00000000e-02  3.93534866e-09  1.09501562e-07 
 7.00000000e-02  5.19998634e-09  1.45096245e-07 
 8.00000000e-02  6.87582708e-09  1.92287843e-07 
 9.00000000e-02  9.09689545e-09  2.54866086e-07 
 1.00000000e-01  1.20410251e-08  3.37861603e-07 
 1.10000000e-01  1.59442046e-08  4.47952454e-07 
 1.20000000e-01  2.11196221e-08  5.94003505e-07 
 1.30000000e-01  2.79829412e-08  7.87781634e-07 
 1.40000000e-01  3.70858381e-08  1.04490330e-06 
 1.50000000e-01  4.91604750e-08  1.38608857e-06 
 1.60000000e-01  6.51784385e-08  1.83881803e-06 
 1.70000000e-01  8.64287675e-08  2.43951748e-06 
 1.80000000e-01  1.14621116e-07  3.23643003e-06 
 1.90000000e-01  1.52021894e-07  4.29337717e-06 
 2.00000000e-01  2.01633481e-07  5.69465750e-06 
 2.10000000e-01  2.67429336e-07  7.55138109e-06 
 2.20000000e-01  3.54661030e-07  1.00095783e-05 
 2.30000000e-01  4.70256717e-07  1.32604372e-05 
 2.40000000e-01  6.23333956e-07  1.75529775e-05 
 2.50000000e-01  8.25852166e-07  2.32093042e-05 
 2.60000000e-01  1.09342975e-06  3.06422015e-05 
 2.70000000e-01  1.44634526e-06  4.03740934e-05 
 2.80000000e-01  1.91072627e-06  5.30551157e-05 
 2.90000000e-01  2.51989790e-06  6.94760355e-05 
 3.00000000e-01  3.31580652e-06  9.05689382e-05 
 3.10000000e-01  4.35034730e-06  1.17385286e-04 
 3.20000000e-01  5.68630527e-06  1.51038291e-04 
 3.30000000e-01  7.39748755e-06  1.92597024e-04 
 3.40000000e-01  9.56752888e-06  2.42927306e-04 
 3.50000000e-01  1.22868861e-05  3.02493151e-04 
 3.60000000e-01  1.56478175e-05  3.71162263e-04 
 3.70000000e-01  1.97377358e-05  4.48089511e-04 
 3.80000000e-01  2.46321364e-05  5.31760596e-04 
 3.90000000e-01  3.03889775e-05  6.20240179e-04 
 4.00000000e-01  3.70464372e-05  7.11584074e-04 
 4.10000000e-01  4.46250967e-05  8.04285485e-04 
 4.20000000e-01  5.31340727e-05  8.97593679e-04 
 4.30000000e-01  6.25792172e-05  9.91599781e-04 
 4.40000000e-01  7.29709780e-05  1.08709268e-03 
 4.50000000e-01  8.43300314e-05  1.18527721e-03 
 4.60000000e-01  9.66899039e-05  1.28747170e-03 
 4.70000000e-01  1.10096842e-04  1.39487005e-03 
 4.80000000e-01  1.24607784e-04  1.50840136e-03 
 4.90000000e-01  1.40287391e-04  1.62867879e-03 
 5.00000000e-01  1.57204903e-04  1.75601043e-03 
 5.10000000e-01  1.75431293e-04  1.89044326e-03 
 5.20000000e-01  1.95036926e-04  2.03181834e-03 
 5.30000000e-01  2.16089774e-04  2.17982408e-03 
 5.40000000e-01  2.38654121e-04  2.33404144e-03 
 5.50000000e-01  2.62789676e-04  2.49397950e-03 
 5.60000000e-01  2.88550995e-04  2.65910202e-03 
 5.70000000e-01  3.15987125e-04  2.82884665e-03 
 5.80000000e-01  3.45141419e-04  3.00263856e-03 
 5.90000000e-01  3.76051461e-04  3.17990011e-03 
 6.00000000e-01  4.08749074e-04  3.36005773e-03 
 6.10000000e-01  4.43260386e-04  3.54254695e-03 
 6.20000000e-01  4.79605945e-04  3.72681624e-03 
 6.30000000e-01  5.17800858e-04  3.91233006e-03 
 6.40000000e-01  5.57854969e-04  4.09857137e-03 
 6.50000000e-01  5.99773053e-04  4.28504378e-03 
 6.60000000e-01  6.43555032e-04  4.47127338e-03 
 6.70000000e-01  6.89196209e-04  4.65681036e-03 
 6.80000000e-01  7.36687513e-04  4.84123033e-03 
 6.90000000e-01  7.86015762e-04  5.02413540e-03 
 7.00000000e-01  8.37163933e-04  5.20515505e-03 
 7.10000000e-01  8.90111433e-04  5.38394663e-03 
 7.20000000e-01  9.43950900e-04  5.56019566e-03 
 7.30000000e-01  1.00043634e-03  5.73361587e-03 
 7.40000000e-01  1.05864207e-03  5.90394890e-03 
 7.50000000e-01  1.11853590e-03  6.07096390e-03 
 7.60000000e-01  1.18008347e-03  6.23445678e-03 
 7.70000000e-01  1.24324851e-03  6.39424939e-03 
 7.80000000e-01  1.30799312e-03  6.55018852e-03 
 7.90000000e-01  1.37427797e-03  6.70214473e-03 
 8.00000000e-01  1.44206257e-03  6.85001121e-03 
 8.10000000e-01  1.51130546e-03  6.99370244e-03 
 8.20000000e-01  1.58196445e-03  7.13315296e-03 
 8.30000000e-01  1.65399679e-03  7.26831601e-03 
 8.40000000e-01  1.72735935e-03  7.39916220e-03 
 8.50000000e-01  1.80200881e-03  7.52567827e-03 
 8.60000000e-01  1.87790178e-03  7.64786573e-03 
 8.70000000e-01  1.95499498e-03  7.76573966e-03 
 8.80000000e-01  2.03324533e-03  7.87932748e-03 
 8.90000000e-01  2.11261010e-03  7.98866772e-03 
 9.00000000e-01  2.19304700e-03  8.09380896e-03 
 9.10000000e-01  2.27451427e-03  8.19480868e-03 
 9.20000000e-01  2.35697078e-03  8.29173221e-03 
 9.30000000e-01  2.44037609e-03  8.38465178e-03 
 9.40000000e-01  2.52469051e-03  8.47364553e-03 
 9.50000000e-01  2.60987517e-03  8.55879663e-03 
 9.60000000e-01  2.69589206e-03  8.64019248e-03 
 9.70000000e-01  2.78270405e-03  8.71792388e-03 
 9.80000000e-01  2.87027496e-03  8.79208435e-03 
 9.90000000e-01  2.95856955e-03  8.86276945e-03 
 1.00000000e+00  3.04755352e-03  8.93007620e-03 
 1.01000000e+00  3.13719359e-03  8.99410248e-03 
 1.02000000e+00  3.22745744e-03  9.05494657e-03 
 1.03000000e+00  3.31831374e-03  9.11270671e-03 
 1.04000000e+00  3.40973213e-03  9.16748067e-03 
 1.05000000e+00  3.50168326e-03  9.21936542e-03 
 1.06000000e+00  3.59413870e-03  9.26845684e-03 
 1.07000000e+00  3.68707102e-03  9.31484943e-03 
 1.08000000e+00  3.78045368e-03  9.35863606e-03 
 1.09000000e+00  3.87426111e-03  9.39990786e-03 
 1.10000000e+00  3.96846861e-03  9.43875396e-03 
 1.11000000e+00  4.06305236e-03  9.47526142e-03 
 1.12000000e+00  4.15798942e-03  9.50951512e-03 
 1.13000000e+00  4.25325769e-03  9.54159765e-03 
 1.14000000e+00  4.34883585e-03  9.57158928e-03 
 1.15000000e+00  4.44470341e-03  9.59956790e-03 
 1.16000000e+00  4.54084063e-03  9.62560899e-03 
 1.17000000e+00  4.63722851e-03  9.64978565e-03 
 1.18000000e+00  4.73384877e-03  9.67216853e-03 
 1.19000000e+00  4.83068383e-03  9.69282592e-03 
 1.20000000e+00  4.92771679e-03  9.71182373e-03 
 1.21000000e+00  5.02493137e-03  9.72922553e-03 
 1.22000000e+00  5.12231194e-03  9.74509258e-03 
 1.23000000e+00  5.21984345e-03  9.75948390e-03 
 1.24000000e+00  5.31751145e-03  9.77245628e-03 
 1.25000000e+00  5.41530204e-03  9.78406438e-03 
 1.26000000e+00  5.51320183e-03  9.79436075e-03 
 1.27000000e+00  5.61119799e-03  9.80339588e-03 
 1.28000000e+00  5.70927816e-03  9.81121830e-03 
 1.29000000e+00  5.80743044e-03  9.81787462e-03 
 1.30000000e+00  5.90564342e-03  9.82340958e-03 
 1.31000000e+00  6.00390611e-03  9.82786611e-03 
 1.32000000e+00  6.10220793e-03  9.83128543e-03 
 1.33000000e+00  6.20053873e-03  9.83370707e-03 
 1.34000000e+00  6.29888872e-03  9.83516895e-03 
 1.35000000e+00  6.39724850e-03  9.83570743e-03 
 1.36000000e+00  6.49560902e-03  9.83535738e-03 
 1.37000000e+00  6.59396157e-03  9.83415222e-03 
 1.38000000e+00  6.69229776e-03  9.83212402e-03 
 1.39000000e+00  6.79060953e-03  9.82930349e-03 
 1.40000000e+00  6.88888911e-03  9.82572007e-03 
 1.41000000e+00  6.98712902e-03  9.82140199e-03 
 1.42000000e+00  7.08532204e-03  9.81637631e-03 
 1.43000000e+00  7.18346125e-03  9.81066895e-03 
 1.44000000e+00  7.28153996e-03  9.80430478e-03 
 1.45000000e+00  7.37955172e-03  9.79730761e-03 
 1.46000000e+00  7.47749033e-03  9.78970029e-03 
 1.47000000e+00  7.57534979e-03  9.78150471e-03 
 1.48000000e+00  7.67312434e-03  9.77274186e-03 
 1.49000000e+00  7.77080841e-03  9.76343186e-03 
 1.50000000e+00  7.86839662e-03  9.75359402e-03 
