 v-sweep         ID              Gm             
-5.00000000e-01  1.17628079e-10 -5.85734312e-10 
-4.90000000e-01  1.11770736e-10 -5.61842977e-10 
-4.80000000e-01  1.06272398e-10 -5.38705658e-10 
-4.70000000e-01  1.01001650e-10 -5.16306805e-10 
-4.60000000e-01  9.59511851e-11 -4.94630954e-10 
-4.50000000e-01  9.11138508e-11 -4.73662738e-10 
-4.40000000e-01  8.64826479e-11 -4.53386882e-10 
-4.30000000e-01  8.20507290e-11 -4.33788214e-10 
-4.20000000e-01  7.78113982e-11 -4.14851668e-10 
-4.10000000e-01  7.37581098e-11 -3.96562284e-10 
-4.00000000e-01  6.98844669e-11 -3.78905212e-10 
-3.90000000e-01  6.61842209e-11 -3.61865721e-10 
-3.80000000e-01  6.26512697e-11 -3.45429196e-10 
-3.70000000e-01  5.92796568e-11 -3.29581141e-10 
-3.60000000e-01  5.60635701e-11 -3.14307187e-10 
-3.50000000e-01  5.29973404e-11 -2.99593088e-10 
-3.40000000e-01  5.00754407e-11 -2.85424725e-10 
-3.30000000e-01  4.72924842e-11 -2.71788106e-10 
-3.20000000e-01  4.46432235e-11 -2.58669365e-10 
-3.10000000e-01  4.21225494e-11 -2.46054756e-10 
-3.00000000e-01  3.97254893e-11 -2.33930655e-10 
-2.90000000e-01  3.74472064e-11 -2.22283545e-10 
-2.80000000e-01  3.52829984e-11 -2.11100005e-10 
-2.70000000e-01  3.32282967e-11 -2.00366694e-10 
-2.60000000e-01  3.12786660e-11 -1.90070321e-10 
-2.50000000e-01  2.94298033e-11 -1.80197611e-10 
-2.40000000e-01  2.76775382e-11 -1.70735254e-10 
-2.30000000e-01  2.60178338e-11 -1.61669830e-10 
-2.20000000e-01  2.44467878e-11 -1.52987712e-10 
-2.10000000e-01  2.29606349e-11 -1.44674934e-10 
-2.00000000e-01  2.15557513e-11 -1.36717003e-10 
-1.90000000e-01  2.02286605e-11 -1.29098646e-10 
-1.80000000e-01  1.89760421e-11 -1.21803467e-10 
-1.70000000e-01  1.77947455e-11 -1.14813470e-10 
-1.60000000e-01  1.66818070e-11 -1.08108416e-10 
-1.50000000e-01  1.56344764e-11 -1.01664940e-10 
-1.40000000e-01  1.46502516e-11 -9.54553450e-11 
-1.30000000e-01  1.37269281e-11 -8.94459560e-11 
-1.20000000e-01  1.28626663e-11 -8.35948679e-11 
-1.10000000e-01  1.20560848e-11 -7.78488701e-11 
-1.00000000e-01  1.13063878e-11 -7.21392394e-11 
-9.00000000e-02  1.06135401e-11 -6.63759873e-11 
-8.00000000e-02  9.97850736e-12 -6.04399902e-11 
-7.00000000e-02  9.40358431e-12 -5.41722191e-11 
-6.00000000e-02  8.89284515e-12 -4.73589982e-11 
-5.00000000e-02  8.45275979e-12 -3.97118187e-11 
-4.00000000e-02  8.09303780e-12 -3.08396912e-11 
-3.00000000e-02  7.82778424e-12 -2.02112655e-11 
-2.00000000e-02  7.67708272e-12 -7.10291665e-12 
-1.00000000e-02  7.66916416e-12  9.47242322e-12 
 3.08780779e-16  7.84337827e-12  3.08628567e-11 
 1.00000000e-02  8.25426633e-12  5.89113825e-11 
 2.00000000e-02  8.97714414e-12  9.61395560e-11 
 3.00000000e-02  1.01157576e-11  1.45999536e-10 
 4.00000000e-02  1.18127827e-11  2.13220065e-10 
 5.00000000e-02  1.42642296e-11  3.04281481e-10 
 6.00000000e-02  1.77392091e-11  4.28068008e-10 
 7.00000000e-02  2.26070601e-11  5.96763594e-10 
 8.00000000e-02  3.04663795e-11  8.27082340e-10 
 9.00000000e-02  4.02295210e-11  1.14195847e-09 
 1.00000000e-01  5.36910369e-11  1.57286726e-09 
 1.10000000e-01  7.22158839e-11  2.16301171e-09 
 1.20000000e-01  9.76773104e-11  2.97169592e-09 
 1.30000000e-01  1.32646283e-10  4.08032310e-09 
 1.40000000e-01  1.80651416e-10  5.60061258e-09 
 1.50000000e-01  2.46535410e-10  7.68583937e-09 
 1.60000000e-01  3.36943349e-10  1.05461727e-08 
 1.70000000e-01  4.60990660e-10  1.44695401e-08 
 1.80000000e-01  6.31174878e-10  1.98498755e-08 
 1.90000000e-01  8.64616421e-10  2.72251101e-08 
 2.00000000e-01  1.18473979e-09  3.73277858e-08 
 2.10000000e-01  1.62353757e-09  5.11515664e-08 
 2.20000000e-01  2.22459288e-09  7.00369214e-08 
 2.30000000e-01  3.04706490e-09  9.57782855e-08 
 2.40000000e-01  4.17085300e-09  1.30752116e-07 
 2.50000000e-01  5.70312110e-09  1.78058988e-07 
 2.60000000e-01  7.78624341e-09  2.41661414e-07 
 2.70000000e-01  1.06069653e-08  3.26481254e-07 
 2.80000000e-01  1.44061029e-08  4.38398499e-07 
 2.90000000e-01  1.94874260e-08  5.84076270e-07 
 3.00000000e-01  2.62236289e-08  7.70544913e-07 
 3.10000000e-01  3.50568527e-08  1.00453448e-06 
 3.20000000e-01  4.64916283e-08  1.29165277e-06 
 3.30000000e-01  6.10796712e-08  1.63561966e-06 
 3.40000000e-01  7.93983466e-08  2.03780353e-06 
 3.50000000e-01  1.02026701e-07  2.49720890e-06 
 3.60000000e-01  1.29523568e-07  3.01088363e-06 
 3.70000000e-01  1.62411131e-07  3.57456468e-06 
 3.80000000e-01  2.01165205e-07  4.18334604e-06 
 3.90000000e-01  2.46211652e-07  4.83221634e-06 
 4.00000000e-01  2.97927228e-07  5.51640994e-06 
 4.10000000e-01  3.56643075e-07  6.23158746e-06 
 4.20000000e-01  4.22649353e-07  6.97389377e-06 
 4.30000000e-01  4.96200047e-07  7.73994303e-06 
 4.40000000e-01  5.77517430e-07  8.52676896e-06 
 4.50000000e-01  6.66795958e-07  9.33176423e-06 
 4.60000000e-01  7.64205561e-07  1.01526218e-05 
 4.70000000e-01  8.69894387e-07  1.09872840e-05 
 4.80000000e-01  9.83991070e-07  1.18339004e-05 
 4.90000000e-01  1.10660664e-06  1.26907943e-05 
 5.00000000e-01  1.23783611e-06  1.35564371e-05 
 5.10000000e-01  1.37775986e-06  1.44294272e-05 
 5.20000000e-01  1.52644483e-06  1.53084747e-05 
 5.30000000e-01  1.68394556e-06  1.61923887e-05 
 5.40000000e-01  1.85030514e-06  1.70800675e-05 
 5.50000000e-01  2.02555605e-06  1.79704901e-05 
 5.60000000e-01  2.20972093e-06  1.88627100e-05 
 5.70000000e-01  2.40281331e-06  1.97558490e-05 
 5.80000000e-01  2.60483825e-06  2.06490929e-05 
 5.90000000e-01  2.81579299e-06  2.15416863e-05 
 6.00000000e-01  3.03566747e-06  2.24329296e-05 
 6.10000000e-01  3.26444492e-06  2.33221748e-05 
 6.20000000e-01  3.50210231e-06  2.42088227e-05 
 6.30000000e-01  3.74861086e-06  2.50923193e-05 
 6.40000000e-01  4.00393648e-06  2.59721538e-05 
 6.50000000e-01  4.26804016e-06  2.68478551e-05 
 6.60000000e-01  4.53651871e-06  2.77189900e-05 
 6.70000000e-01  4.81806826e-06  2.85851606e-05 
 6.80000000e-01  5.10825501e-06  2.94460021e-05 
 6.90000000e-01  5.40702382e-06  3.03011805e-05 
 7.00000000e-01  5.71431637e-06  3.11503912e-05 
 7.10000000e-01  6.03007143e-06  3.19933567e-05 
 7.20000000e-01  6.35422514e-06  3.28298250e-05 
 7.30000000e-01  6.68671124e-06  3.36595678e-05 
 7.40000000e-01  7.02746133e-06  3.44823794e-05 
 7.50000000e-01  7.37640504e-06  3.52980747e-05 
 7.60000000e-01  7.73347026e-06  3.61064879e-05 
 7.70000000e-01  8.09858334e-06  3.69074716e-05 
 7.80000000e-01  8.47166922e-06  3.77008951e-05 
 7.90000000e-01  8.85265164e-06  3.84866435e-05 
 8.00000000e-01  9.24145326e-06  3.92646165e-05 
 8.10000000e-01  9.63799580e-06  4.00347275e-05 
 8.20000000e-01  1.00422002e-05  4.07969025e-05 
 8.30000000e-01  1.04539868e-05  4.15510791e-05 
 8.40000000e-01  1.08732751e-05  4.22972058e-05 
 8.50000000e-01  1.12999845e-05  4.30352413e-05 
 8.60000000e-01  1.17340339e-05  4.37651535e-05 
 8.70000000e-01  1.21753418e-05  4.44869187e-05 
 8.80000000e-01  1.26238266e-05  4.52005213e-05 
 8.90000000e-01  1.30794066e-05  4.59059529e-05 
 9.00000000e-01  1.35420001e-05  4.66032117e-05 
 9.10000000e-01  1.40115253e-05  4.72923022e-05 
 9.20000000e-01  1.44879006e-05  4.79732341e-05 
 9.30000000e-01  1.49710444e-05  4.86460224e-05 
 9.40000000e-01  1.54608753e-05  4.93106868e-05 
 9.50000000e-01  1.59573123e-05  4.99672509e-05 
 9.60000000e-01  1.64602744e-05  5.06157421e-05 
 9.70000000e-01  1.69696810e-05  5.12561913e-05 
 9.80000000e-01  1.74854518e-05  5.18886322e-05 
 9.90000000e-01  1.80075070e-05  5.25131012e-05 
 1.00000000e+00  1.85357670e-05  5.31296370e-05 
 1.01000000e+00  1.90701526e-05  5.37382803e-05 
 1.02000000e+00  1.96105852e-05  5.43390735e-05 
 1.03000000e+00  2.01569864e-05  5.49320604e-05 
 1.04000000e+00  2.07092784e-05  5.55172860e-05 
 1.05000000e+00  2.12673839e-05  5.60947963e-05 
 1.06000000e+00  2.18312258e-05  5.66646378e-05 
 1.07000000e+00  2.24007278e-05  5.72268576e-05 
 1.08000000e+00  2.29758138e-05  5.77815033e-05 
 1.09000000e+00  2.35564083e-05  5.83286221e-05 
 1.10000000e+00  2.41424364e-05  5.88682616e-05 
 1.11000000e+00  2.47338234e-05  5.94004689e-05 
 1.12000000e+00  2.53304953e-05  5.99252906e-05 
 1.13000000e+00  2.59323785e-05  6.04427729e-05 
 1.14000000e+00  2.65393997e-05  6.09529612e-05 
 1.15000000e+00  2.71514863e-05  6.14559000e-05 
 1.16000000e+00  2.77685660e-05  6.19516329e-05 
 1.17000000e+00  2.83905670e-05  6.24402024e-05 
 1.18000000e+00  2.90174178e-05  6.29216497e-05 
 1.19000000e+00  2.96490475e-05  6.33960148e-05 
 1.20000000e+00  3.02853853e-05  6.38633362e-05 
 1.21000000e+00  3.09263612e-05  6.43236508e-05 
 1.22000000e+00  3.15719051e-05  6.47769940e-05 
 1.23000000e+00  3.22219475e-05  6.52233995e-05 
 1.24000000e+00  3.28764193e-05  6.56628992e-05 
 1.25000000e+00  3.35352515e-05  6.60955231e-05 
 1.26000000e+00  3.41983756e-05  6.65212995e-05 
 1.27000000e+00  3.48657232e-05  6.69402545e-05 
 1.28000000e+00  3.55372262e-05  6.73524123e-05 
 1.29000000e+00  3.62128167e-05  6.77577948e-05 
 1.30000000e+00  3.68924272e-05  6.81564220e-05 
 1.31000000e+00  3.75759902e-05  6.85483117e-05 
 1.32000000e+00  3.82634384e-05  6.89334792e-05 
 1.33000000e+00  3.89547046e-05  6.93119379e-05 
 1.34000000e+00  3.96497219e-05  6.96836987e-05 
 1.35000000e+00  4.03484232e-05  7.00487702e-05 
 1.36000000e+00  4.10507419e-05  7.04071585e-05 
 1.37000000e+00  4.17566110e-05  7.07588677e-05 
 1.38000000e+00  4.24659638e-05  7.11038992e-05 
 1.39000000e+00  4.31787335e-05  7.14422522e-05 
 1.40000000e+00  4.38948533e-05  7.17739232e-05 
 1.41000000e+00  4.46142565e-05  7.20989066e-05 
 1.42000000e+00  4.53368760e-05  7.24171942e-05 
 1.43000000e+00  4.60626450e-05  7.27287757e-05 
 1.44000000e+00  4.67914963e-05  7.30336381e-05 
 1.45000000e+00  4.75233626e-05  7.33317661e-05 
 1.46000000e+00  4.82581765e-05  7.36231422e-05 
 1.47000000e+00  4.89958704e-05  7.39077465e-05 
 1.48000000e+00  4.97363766e-05  7.41855568e-05 
 1.49000000e+00  5.04796268e-05  7.44565486e-05 
 1.50000000e+00  5.12255530e-05  7.47206953e-05 
