 frequency       inoise_spectrum onoise_spectrum
 1.00000000e+00  1.94886634e-05  1.36478601e-04 
 1.11588399e+00  1.84489874e-05  1.29197777e-04 
 1.24519708e+00  1.74647757e-05  1.22305369e-04 
 1.38949549e+00  1.65330696e-05  1.15780655e-04 
 1.55051578e+00  1.56510678e-05  1.09604019e-04 
 1.73019574e+00  1.48161189e-05  1.03756894e-04 
 1.93069773e+00  1.40257126e-05  9.82216993e-05 
 2.15443469e+00  1.32774727e-05  9.29817950e-05 
 2.40409918e+00  1.25691498e-05  8.80214277e-05 
 2.68269580e+00  1.18986142e-05  8.33256849e-05 
 2.99357729e+00  1.12638503e-05  7.88804494e-05 
 3.34048498e+00  1.06629495e-05  7.46723573e-05 
 3.72759372e+00  1.00941055e-05  7.06887575e-05 
 4.15956216e+00  9.55560806e-06  6.69176738e-05 
 4.64158883e+00  9.04583823e-06  6.33477690e-05 
 5.17947468e+00  8.56326349e-06  5.99683107e-05 
 5.77969288e+00  8.10643303e-06  5.67691389e-05 
 6.44946677e+00  7.67397346e-06  5.37406358e-05 
 7.19685673e+00  7.26458465e-06  5.08736967e-05 
 8.03085722e+00  6.87703583e-06  4.81597024e-05 
 8.96150502e+00  6.51016188e-06  4.55904937e-05 
 1.00000000e+01  6.16285985e-06  4.31583466e-05 
 1.11588399e+01  5.83408561e-06  4.08559492e-05 
 1.24519708e+01  5.52285076e-06  3.86763797e-05 
 1.38949549e+01  5.22821962e-06  3.66130855e-05 
 1.55051578e+01  4.94930640e-06  3.46598635e-05 
 1.73019574e+01  4.68527260e-06  3.28108417e-05 
 1.93069773e+01  4.43532444e-06  3.10604612e-05 
 2.15443469e+01  4.19871047e-06  2.94034598e-05 
 2.40409918e+01  3.97471936e-06  2.78348559e-05 
 2.68269580e+01  3.76267770e-06  2.63499337e-05 
 2.99357729e+01  3.56194802e-06  2.49442290e-05 
 3.34048498e+01  3.37192685e-06  2.36135157e-05 
 3.72759372e+01  3.19204292e-06  2.23537933e-05 
 4.15956216e+01  3.02175544e-06  2.11612745e-05 
 4.64158883e+01  2.86055245e-06  2.00323741e-05 
 5.17947468e+01  2.70794933e-06  1.89636984e-05 
 5.77969288e+01  2.56348728e-06  1.79520345e-05 
 6.44946677e+01  2.42673201e-06  1.69943409e-05 
 7.19685673e+01  2.29727239e-06  1.60877385e-05 
 8.03085722e+01  2.17471919e-06  1.52295017e-05 
 8.96150502e+01  2.05870400e-06  1.44170504e-05 
 1.00000000e+02  1.94887802e-06  1.36479419e-05 
 1.11588399e+02  1.84491108e-06  1.29198641e-05 
 1.24519708e+02  1.74649061e-06  1.22306281e-05 
 1.38949549e+02  1.65332073e-06  1.15781619e-05 
 1.55051578e+02  1.56512133e-06  1.09605038e-05 
 1.73019574e+02  1.48162726e-06  1.03757970e-05 
 1.93069773e+02  1.40258749e-06  9.82228361e-06 
 2.15443469e+02  1.32776442e-06  9.29829957e-06 
 2.40409918e+02  1.25693309e-06  8.80226961e-06 
 2.68269580e+02  1.18988056e-06  8.33270248e-06 
 2.99357729e+02  1.12640524e-06  7.88818649e-06 
 3.34048498e+02  1.06631631e-06  7.46738525e-06 
 3.72759372e+02  1.00943311e-06  7.06903370e-06 
 4.15956216e+02  9.55584631e-07  6.69193423e-06 
 4.64158883e+02  9.04608991e-07  6.33495315e-06 
 5.17947468e+02  8.56352935e-07  5.99701725e-06 
 5.77969288e+02  8.10671388e-07  5.67711056e-06 
 6.44946677e+02  7.67427013e-07  5.37427134e-06 
 7.19685673e+02  7.26489804e-07  5.08758913e-06 
 8.03085722e+02  6.87736688e-07  4.81620207e-06 
 8.96150502e+02  6.51051158e-07  4.55929427e-06 
 1.00000000e+03  6.16322925e-07  4.31609336e-06 
 1.11588399e+03  5.83447584e-07  4.08586820e-06 
 1.24519708e+03  5.52326298e-07  3.86792665e-06 
 1.38949549e+03  5.22865506e-07  3.66161349e-06 
 1.55051578e+03  4.94976638e-07  3.46630847e-06 
 1.73019574e+03  4.68575850e-07  3.28142444e-06 
 1.93069773e+03  4.43583771e-07  3.10640557e-06 
 2.15443469e+03  4.19925267e-07  2.94072568e-06 
 2.40409918e+03  3.97529211e-07  2.78388669e-06 
 2.68269580e+03  3.76328272e-07  2.63541707e-06 
 2.99357729e+03  3.56258713e-07  2.49487047e-06 
 3.34048498e+03  3.37260197e-07  2.36182436e-06 
 3.72759372e+03  3.19275608e-07  2.23587875e-06 
 4.15956216e+03  3.02250878e-07  2.11665501e-06 
 4.64158883e+03  2.86134823e-07  2.00379470e-06 
 5.17947468e+03  2.70878994e-07  1.89695852e-06 
 5.77969288e+03  2.56437525e-07  1.79582529e-06 
 6.44946677e+03  2.42767000e-07  1.70009096e-06 
 7.19685673e+03  2.29826321e-07  1.60946773e-06 
 8.03085722e+03  2.17576583e-07  1.52368313e-06 
 8.96150502e+03  2.05980959e-07  1.44247928e-06 
 1.00000000e+04  1.95004587e-07  1.36561203e-06 
 1.11588399e+04  1.84614470e-07  1.29285031e-06 
 1.24519708e+04  1.74779370e-07  1.22397537e-06 
 1.38949549e+04  1.65469719e-07  1.15878012e-06 
 1.55051578e+04  1.56657529e-07  1.09706859e-06 
 1.73019574e+04  1.48316307e-07  1.03865523e-06 
 1.93069773e+04  1.40420976e-07  9.83364428e-07 
 2.15443469e+04  1.32947799e-07  9.31029965e-07 
 2.40409918e+04  1.25874309e-07  8.81494497e-07 
 2.68269580e+04  1.19179239e-07  8.34609101e-07 
 2.99357729e+04  1.12842462e-07  7.90232817e-07 
 3.34048498e+04  1.06844926e-07  7.48232230e-07 
 3.72759372e+04  1.01168600e-07  7.08481065e-07 
 4.15956216e+04  9.57964171e-08  6.70859808e-07 
 4.64158883e+04  9.07122259e-08  6.35255350e-07 
 5.17947468e+04  8.59007401e-08  6.01560640e-07 
 5.77969288e+04  8.13474932e-08  5.69674371e-07 
 6.44946677e+04  7.70387946e-08  5.39500667e-07 
 7.19685673e+04  7.29616887e-08  5.10948801e-07 
 8.03085722e+04  6.91039158e-08  4.83932918e-07 
 8.96150502e+04  6.54538751e-08  4.58371778e-07 
 1.00000000e+05  6.20005899e-08  4.34188511e-07 
 1.11588399e+05  5.87336742e-08  4.11310386e-07 
 1.24519708e+05  5.56433020e-08  3.89668590e-07 
 1.38949549e+05  5.27201767e-08  3.69198020e-07 
 1.55051578e+05  4.99555040e-08  3.49837089e-07 
 1.73019574e+05  4.73409646e-08  3.31527537e-07 
 1.93069773e+05  4.48686893e-08  3.14214257e-07 
 2.15443469e+05  4.25312351e-08  2.97845126e-07 
 2.40409918e+05  4.03215624e-08  2.82370845e-07 
 2.68269580e+05  3.82330138e-08  2.67744793e-07 
 2.99357729e+05  3.62592935e-08  2.53922881e-07 
 3.34048498e+05  3.43944482e-08  2.40863417e-07 
 3.72759372e+05  3.26328485e-08  2.28526979e-07 
 4.15956216e+05  3.09691716e-08  2.16876292e-07 
 4.64158883e+05  2.93983848e-08  2.05876111e-07 
 5.17947468e+05  2.79157294e-08  1.95493113e-07 
 5.77969288e+05  2.65167061e-08  1.85695787e-07 
 6.44946677e+05  2.51970598e-08  1.76454336e-07 
 7.19685673e+05  2.39527668e-08  1.67740581e-07 
 8.03085722e+05  2.27800209e-08  1.59527869e-07 
 8.96150502e+05  2.16752211e-08  1.51790981e-07 
 1.00000000e+06  2.06349594e-08  1.44506050e-07 
 1.11588399e+06  1.96560088e-08  1.37650479e-07 
 1.24519708e+06  1.87353126e-08  1.31202860e-07 
 1.38949549e+06  1.78699730e-08  1.25142901e-07 
 1.55051578e+06  1.70572410e-08  1.19451350e-07 
 1.73019574e+06  1.62945060e-08  1.14109924e-07 
 1.93069773e+06  1.55792862e-08  1.09101245e-07 
 2.15443469e+06  1.49092195e-08  1.04408768e-07 
 2.40409918e+06  1.42820541e-08  1.00016724e-07 
 2.68269580e+06  1.36956403e-08  9.59100588e-08 
 2.99357729e+06  1.31479225e-08  9.20743750e-08 
 3.34048498e+06  1.26369313e-08  8.84958816e-08 
 3.72759372e+06  1.21607774e-08  8.51613443e-08 
 4.15956216e+06  1.17176441e-08  8.20580413e-08 
 4.64158883e+06  1.13057828e-08  7.91737242e-08 
 5.17947468e+06  1.09235075e-08  7.64965831e-08 
 5.77969288e+06  1.05691905e-08  7.40152175e-08 
 6.44946677e+06  1.02412595e-08  7.17186124e-08 
 7.19685673e+06  9.93819473e-09  6.95961199e-08 
 8.03085722e+06  9.65852688e-09  6.76374455e-08 
 8.96150502e+06  9.40083624e-09  6.58326398e-08 
 1.00000000e+07  9.16375193e-09  6.41720942e-08 
 1.11588399e+07  8.94595188e-09  6.26465397e-08 
 1.24519708e+07  8.74616323e-09  6.12470495e-08 
 1.38949549e+07  8.56316294e-09  5.99650423e-08 
 1.55051578e+07  8.39577865e-09  5.87922882e-08 
 1.73019574e+07  8.24288952e-09  5.77209132e-08 
 1.93069773e+07  8.10342709e-09  5.67434037e-08 
 2.15443469e+07  7.97637588e-09  5.58526104e-08 
 2.40409918e+07  7.86077386e-09  5.50417486e-08 
 2.68269580e+07  7.75571257e-09  5.43043972e-08 
 2.99357729e+07  7.66033690e-09  5.36344947e-08 
 3.34048498e+07  7.57384456e-09  5.30263318e-08 
 3.72759372e+07  7.49548523e-09  5.24745407e-08 
 4.15956216e+07  7.42455928e-09  5.19740816e-08 
 4.64158883e+07  7.36041634e-09  5.15202253e-08 
 5.17947468e+07  7.30245348e-09  5.11085328e-08 
 5.77969288e+07  7.25011327e-09  5.07348311e-08 
 6.44946677e+07  7.20288161e-09  5.03951857e-08 
 7.19685673e+07  7.16028547e-09  5.00858689e-08 
 8.03085722e+07  7.12189054e-09  4.98033239e-08 
 8.96150502e+07  7.08729877e-09  4.95441246e-08 
 1.00000000e+08  7.05614605e-09  4.93049289e-08 
 1.11588399e+08  7.02809971e-09  4.90824267e-08 
 1.24519708e+08  7.00285621e-09  4.88732795e-08 
 1.38949549e+08  6.98013883e-09  4.86740514e-08 
 1.55051578e+08  6.95969540e-09  4.84811295e-08 
 1.73019574e+08  6.94129616e-09  4.82906332e-08 
 1.93069773e+08  6.92473163e-09  4.80983089e-08 
 2.15443469e+08  6.90981059e-09  4.78994125e-08 
 2.40409918e+08  6.89635812e-09  4.76885759e-08 
 2.68269580e+08  6.88421366e-09  4.74596625e-08 
 2.99357729e+08  6.87322912e-09  4.72056143e-08 
 3.34048498e+08  6.86326695e-09  4.69182990e-08 
 3.72759372e+08  6.85419826e-09  4.65883733e-08 
 4.15956216e+08  6.84590079e-09  4.62051820e-08 
 4.64158883e+08  6.83825685e-09  4.57567280e-08 
 5.17947468e+08  6.83115099e-09  4.52297541e-08 
 5.77969288e+08  6.82446756e-09  4.46099910e-08 
 6.44946677e+08  6.81808789e-09  4.38826282e-08 
 7.19685673e+08  6.81188704e-09  4.30330595e-08 
 8.03085722e+08  6.80573013e-09  4.20479274e-08 
 8.96150502e+08  6.79946793e-09  4.09164439e-08 
 1.00000000e+09  6.79293172e-09  3.96318869e-08 
 1.11588399e+09  6.78592707e-09  3.81930853e-08 
 1.24519708e+09  6.77822659e-09  3.66056293e-08 
 1.38949549e+09  6.76956111e-09  3.48825147e-08 
 1.55051578e+09  6.75960936e-09  3.30439861e-08 
 1.73019574e+09  6.74798573e-09  3.11164845e-08 
 1.93069773e+09  6.73422608e-09  2.91308037e-08 
 2.15443469e+09  6.71777134e-09  2.71197444e-08 
 2.40409918e+09  6.69794928e-09  2.51156645e-08 
 2.68269580e+09  6.67395462e-09  2.31483121e-08 
 2.99357729e+09  6.64482853e-09  2.12432221e-08 
 3.34048498e+09  6.60943909e-09  1.94207943e-08 
 3.72759372e+09  6.56646539e-09  1.76960242e-08 
 4.15956216e+09  6.51438897e-09  1.60787539e-08 
 4.64158883e+09  6.45149831e-09  1.45742685e-08 
 5.17947468e+09  6.37591296e-09  1.31840707e-08 
 5.77969288e+09  6.28563557e-09  1.19066991e-08 
 6.44946677e+09  6.17863954e-09  1.07384999e-08 
 7.19685673e+09  6.05299826e-09  9.67430019e-09 
 8.03085722e+09  5.90705599e-09  8.70796418e-09 
 8.96150502e+09  5.73963193e-09  7.83282997e-09 
 1.00000000e+10  5.55023663e-09  7.04203962e-09 
