 v-sweep         ID              Gm             
-5.00000000e-01  1.20901227e-09 -6.02041067e-09 
-4.90000000e-01  1.14880816e-09 -5.77484496e-09 
-4.80000000e-01  1.09229406e-09 -5.53702953e-09 
-4.70000000e-01  1.03811924e-09 -5.30680452e-09 
-4.60000000e-01  9.86208576e-10 -5.08401099e-09 
-4.50000000e-01  9.36488561e-10 -4.86849099e-09 
-4.40000000e-01  8.88887247e-10 -4.66008752e-09 
-4.30000000e-01  8.43334254e-10 -4.45864466e-09 
-4.20000000e-01  7.99760758e-10 -4.26400757e-09 
-4.10000000e-01  7.58099475e-10 -4.07602251e-09 
-4.00000000e-01  7.18284654e-10 -3.89453692e-09 
-3.90000000e-01  6.80252066e-10 -3.71939945e-09 
-3.80000000e-01  6.43938986e-10 -3.55045999e-09 
-3.70000000e-01  6.09284186e-10 -3.38756969e-09 
-3.60000000e-01  5.76227920e-10 -3.23058106e-09 
-3.50000000e-01  5.44711910e-10 -3.07934793e-09 
-3.40000000e-01  5.14679332e-10 -2.93372554e-09 
-3.30000000e-01  4.86074804e-10 -2.79357058e-09 
-3.20000000e-01  4.58844370e-10 -2.65874116e-09 
-3.10000000e-01  4.32935485e-10 -2.52909692e-09 
-3.00000000e-01  4.08297000e-10 -2.40449901e-09 
-2.90000000e-01  3.84879147e-10 -2.28481012e-09 
-2.80000000e-01  3.62633524e-10 -2.16989454e-09 
-2.70000000e-01  3.41513078e-10 -2.05961810e-09 
-2.60000000e-01  3.21472090e-10 -1.95384825e-09 
-2.50000000e-01  3.02466157e-10 -1.85245402e-09 
-2.40000000e-01  2.84452181e-10 -1.75530600e-09 
-2.30000000e-01  2.67388346e-10 -1.66227631e-09 
-2.20000000e-01  2.51234110e-10 -1.57323853e-09 
-2.10000000e-01  2.35950188e-10 -1.48806762e-09 
-2.00000000e-01  2.21498537e-10 -1.40663971e-09 
-1.90000000e-01  2.07842347e-10 -1.32883198e-09 
-1.80000000e-01  1.94946032e-10 -1.25452223e-09 
-1.70000000e-01  1.82775223e-10 -1.18358857e-09 
-1.60000000e-01  1.71296768e-10 -1.11590872e-09 
-1.50000000e-01  1.60478740e-10 -1.05135922e-09 
-1.40000000e-01  1.50290452e-10 -9.89814234e-10 
-1.30000000e-01  1.40702485e-10 -9.31143998e-10 
-1.20000000e-01  1.31686736e-10 -8.75212568e-10 
-1.10000000e-01  1.23216491e-10 -8.21874801e-10 
-1.00000000e-01  1.15266530e-10 -7.70972172e-10 
-9.00000000e-02  1.07813280e-10 -7.22327024e-10 
-8.00000000e-02  1.00835036e-10 -6.75734664e-10 
-7.00000000e-02  9.43122680e-11 -6.30952480e-10 
-6.00000000e-02  8.82280489e-11 -5.87684987e-10 
-5.00000000e-02  8.25686581e-11 -5.45563237e-10 
-4.00000000e-02  7.73244113e-11 -5.04116494e-10 
-3.00000000e-02  7.24908128e-11 -4.62733242e-10 
-2.00000000e-02  6.80701484e-11 -4.20607494e-10 
-1.00000000e-02  6.40736835e-11 -3.76664861e-10 
 3.08780779e-16  6.05246979e-11 -3.29460690e-10 
 1.00000000e-02  5.74626701e-11 -2.77039719e-10 
 2.00000000e-02  5.49490476e-11 -2.16742639e-10 
 3.00000000e-02  5.30752034e-11 -1.44939429e-10 
 4.00000000e-02  5.19734046e-11 -5.66616523e-11 
 5.00000000e-02  5.18319373e-11  5.49046239e-11 
 6.00000000e-02  5.29159611e-11  1.99118237e-10 
 7.00000000e-02  5.55962680e-11  3.88847647e-10 
 8.00000000e-02  6.15920543e-11  6.41801571e-10 
 9.00000000e-02  6.96275174e-11  9.82364077e-10 
 1.00000000e-01  8.16419361e-11  1.44412458e-09 
 1.10000000e-01  9.90663523e-11  2.07336408e-09 
 1.20000000e-01  1.23877411e-10  2.93385496e-09 
 1.30000000e-01  1.58803529e-10  4.11346106e-09 
 1.40000000e-01  2.07608727e-10  5.73319631e-09 
 1.50000000e-01  2.75482904e-10  7.95962451e-09 
 1.60000000e-01  3.69577551e-10  1.10217679e-08 
 1.70000000e-01  4.99739236e-10  1.52340381e-08 
 1.80000000e-01  6.79510292e-10  2.10270958e-08 
 1.90000000e-01  9.27487132e-10  2.89889252e-08 
 2.00000000e-01  1.26915089e-09  3.99186502e-08 
 2.10000000e-01  1.73931003e-09  5.48954605e-08 
 2.20000000e-01  2.38531415e-09  7.53639772e-08 
 2.30000000e-01  3.27119975e-09  1.03234730e-07 
 2.40000000e-01  4.48289183e-09  1.40993093e-07 
 2.50000000e-01  6.13447668e-09  1.91801039e-07 
 2.60000000e-01  8.37534427e-09  2.59563371e-07 
 2.70000000e-01  1.13976445e-08  3.48916265e-07 
 2.80000000e-01  1.54430334e-08  4.65088635e-07 
 2.90000000e-01  2.08072266e-08  6.13598349e-07 
 3.00000000e-01  2.78406783e-08  7.99786868e-07 
 3.10000000e-01  3.69440637e-08  1.02826296e-06 
 3.20000000e-01  4.85582791e-08  1.30238783e-06 
 3.30000000e-01  6.31501145e-08  1.62394529e-06 
 3.40000000e-01  8.11959414e-08  1.99308086e-06 
 3.50000000e-01  1.03166114e-07  2.40849441e-06 
 3.60000000e-01  1.29512186e-07  2.86779174e-06 
 3.70000000e-01  1.60657953e-07  3.36787917e-06 
 3.80000000e-01  1.96994268e-07  3.90531376e-06 
 3.90000000e-01  2.38876948e-07  4.47656757e-06 
 4.00000000e-01  2.86626867e-07  5.07820205e-06 
 4.10000000e-01  3.40531401e-07  5.70696822e-06 
 4.20000000e-01  4.00846602e-07  6.35985404e-06 
 4.30000000e-01  4.67799649e-07  7.03409806e-06 
 4.40000000e-01  5.41591342e-07  7.72718357e-06 
 4.50000000e-01  6.22398476e-07  8.43682290e-06 
 4.60000000e-01  7.10376031e-07  9.16093768e-06 
 4.70000000e-01  8.05659164e-07  9.89763832e-06 
 4.80000000e-01  9.08364999e-07  1.06452045e-05 
 4.90000000e-01  1.01859423e-06  1.14020677e-05 
 5.00000000e-01  1.13643255e-06  1.21667947e-05 
 5.10000000e-01  1.26195196e-06  1.29380749e-05 
 5.20000000e-01  1.39521188e-06  1.37147071e-05 
 5.30000000e-01  1.53626025e-06  1.44955896e-05 
 5.40000000e-01  1.68513446e-06  1.52797111e-05 
 5.50000000e-01  1.84186217e-06  1.60661421e-05 
 5.60000000e-01  2.00646214e-06  1.68540283e-05 
 5.70000000e-01  2.17894496e-06  1.76425840e-05 
 5.80000000e-01  2.35931364e-06  1.84310866e-05 
 5.90000000e-01  2.54756429e-06  1.92188714e-05 
 6.00000000e-01  2.74368663e-06  2.00053271e-05 
 6.10000000e-01  2.94766453e-06  2.07898921e-05 
 6.20000000e-01  3.15947645e-06  2.15720502e-05 
 6.30000000e-01  3.37909592e-06  2.23513274e-05 
 6.40000000e-01  3.60649194e-06  2.31272889e-05 
 6.50000000e-01  3.84162932e-06  2.38995363e-05 
 6.60000000e-01  4.08062468e-06  2.46677047e-05 
 6.70000000e-01  4.33114611e-06  2.54314607e-05 
 6.80000000e-01  4.58928331e-06  2.61904997e-05 
 6.90000000e-01  4.85498755e-06  2.69445444e-05 
 7.00000000e-01  5.12820749e-06  2.76933424e-05 
 7.10000000e-01  5.40888937e-06  2.84366649e-05 
 7.20000000e-01  5.69697729e-06  2.91743045e-05 
 7.30000000e-01  5.99241335e-06  2.99060743e-05 
 7.40000000e-01  6.29513790e-06  3.06318063e-05 
 7.50000000e-01  6.60508972e-06  3.13513497e-05 
 7.60000000e-01  6.92220615e-06  3.20645702e-05 
 7.70000000e-01  7.24642328e-06  3.27713486e-05 
 7.80000000e-01  7.57767607e-06  3.34715800e-05 
 7.90000000e-01  7.91589852e-06  3.41651725e-05 
 8.00000000e-01  8.26102378e-06  3.48520462e-05 
 8.10000000e-01  8.61298424e-06  3.55321330e-05 
 8.20000000e-01  8.97171168e-06  3.62053749e-05 
 8.30000000e-01  9.33713737e-06  3.68717240e-05 
 8.40000000e-01  9.70919212e-06  3.75311415e-05 
 8.50000000e-01  1.00878064e-05  3.81835969e-05 
 8.60000000e-01  1.04729105e-05  3.88290675e-05 
 8.70000000e-01  1.08644343e-05  3.94675382e-05 
 8.80000000e-01  1.12623079e-05  4.00990002e-05 
 8.90000000e-01  1.16664611e-05  4.07234512e-05 
 9.00000000e-01  1.20768237e-05  4.13408945e-05 
 9.10000000e-01  1.24933257e-05  4.19513390e-05 
 9.20000000e-01  1.29158971e-05  4.25547980e-05 
 9.30000000e-01  1.33444682e-05  4.31512898e-05 
 9.40000000e-01  1.37789693e-05  4.37408366e-05 
 9.50000000e-01  1.42193312e-05  4.43234643e-05 
 9.60000000e-01  1.46654848e-05  4.48992026e-05 
 9.70000000e-01  1.51173612e-05  4.54680840e-05 
 9.80000000e-01  1.55748921e-05  4.60301443e-05 
 9.90000000e-01  1.60380096e-05  4.65854215e-05 
 1.00000000e+00  1.65066458e-05  4.71339563e-05 
 1.01000000e+00  1.69807336e-05  4.76757912e-05 
 1.02000000e+00  1.74602063e-05  4.82109710e-05 
 1.03000000e+00  1.79449974e-05  4.87395420e-05 
 1.04000000e+00  1.84350412e-05  4.92615518e-05 
 1.05000000e+00  1.89302722e-05  4.97770496e-05 
 1.06000000e+00  1.94306256e-05  5.02860856e-05 
 1.07000000e+00  1.99360370e-05  5.07887110e-05 
 1.08000000e+00  2.04464425e-05  5.12849776e-05 
 1.09000000e+00  2.09617789e-05  5.17749381e-05 
 1.10000000e+00  2.14819833e-05  5.22586455e-05 
 1.11000000e+00  2.20069935e-05  5.27361532e-05 
 1.12000000e+00  2.25367477e-05  5.32075148e-05 
 1.13000000e+00  2.30711848e-05  5.36727841e-05 
 1.14000000e+00  2.36102440e-05  5.41320146e-05 
 1.15000000e+00  2.41538654e-05  5.45852598e-05 
 1.16000000e+00  2.47019891e-05  5.50325730e-05 
 1.17000000e+00  2.52545564e-05  5.54740070e-05 
 1.18000000e+00  2.58115085e-05  5.59096141e-05 
 1.19000000e+00  2.63727875e-05  5.63394460e-05 
 1.20000000e+00  2.69383359e-05  5.67635538e-05 
 1.21000000e+00  2.75080967e-05  5.71819876e-05 
 1.22000000e+00  2.80820135e-05  5.75947968e-05 
 1.23000000e+00  2.86600302e-05  5.80020298e-05 
 1.24000000e+00  2.92420912e-05  5.84037337e-05 
 1.25000000e+00  2.98281417e-05  5.87999547e-05 
 1.26000000e+00  3.04181269e-05  5.91907375e-05 
 1.27000000e+00  3.10119927e-05  5.95761256e-05 
 1.28000000e+00  3.16096854e-05  5.99561609e-05 
 1.29000000e+00  3.22111516e-05  6.03308840e-05 
 1.30000000e+00  3.28163385e-05  6.07003335e-05 
 1.31000000e+00  3.34251934e-05  6.10645467e-05 
 1.32000000e+00  3.40376643e-05  6.14235588e-05 
 1.33000000e+00  3.46536993e-05  6.17774031e-05 
 1.34000000e+00  3.52732468e-05  6.21261113e-05 
 1.35000000e+00  3.58962557e-05  6.24697125e-05 
 1.36000000e+00  3.65226751e-05  6.28082339e-05 
 1.37000000e+00  3.71524543e-05  6.31417006e-05 
 1.38000000e+00  3.77855428e-05  6.34701350e-05 
 1.39000000e+00  3.84218905e-05  6.37935574e-05 
 1.40000000e+00  3.90614474e-05  6.41119854e-05 
 1.41000000e+00  3.97041635e-05  6.44254339e-05 
 1.42000000e+00  4.03499893e-05  6.47339155e-05 
 1.43000000e+00  4.09988750e-05  6.50374397e-05 
 1.44000000e+00  4.16507711e-05  6.53360133e-05 
 1.45000000e+00  4.23056282e-05  6.56296400e-05 
 1.46000000e+00  4.29633969e-05  6.59183204e-05 
 1.47000000e+00  4.36240276e-05  6.62020518e-05 
 1.48000000e+00  4.42874709e-05  6.64808285e-05 
 1.49000000e+00  4.49536772e-05  6.67546412e-05 
 1.50000000e+00  4.56225968e-05  6.70234773e-05 
