 frequency       inoise_spectrum onoise_spectrum
 1.00000000e+00  2.31684054e-05  2.42572122e-04 
 1.11588399e+00  2.19324341e-05  2.29631560e-04 
 1.24519708e+00  2.07623997e-05  2.17381354e-04 
 1.38949549e+00  1.96547845e-05  2.05784676e-04 
 1.55051578e+00  1.86062589e-05  1.94806661e-04 
 1.73019574e+00  1.76136704e-05  1.84414306e-04 
 1.93069773e+00  1.66740350e-05  1.74576367e-04 
 2.15443469e+00  1.57845278e-05  1.65263269e-04 
 2.40409918e+00  1.49424747e-05  1.56447012e-04 
 2.68269580e+00  1.41453441e-05  1.48101091e-04 
 2.99357729e+00  1.33907395e-05  1.40200417e-04 
 3.34048498e+00  1.26763924e-05  1.32721236e-04 
 3.72759372e+00  1.20001551e-05  1.25641063e-04 
 4.15956216e+00  1.13599947e-05  1.18938614e-04 
 4.64158883e+00  1.07539865e-05  1.12593736e-04 
 5.17947468e+00  1.01803088e-05  1.06587357e-04 
 5.77969288e+00  9.63723672e-06  1.00901418e-04 
 6.44946677e+00  9.12313772e-06  9.55188257e-05 
 7.19685673e+00  8.63646619e-06  9.04233975e-05 
 8.03085722e+00  8.17575903e-06  8.55998150e-05 
 8.96150502e+00  7.73963117e-06  8.10335767e-05 
 1.00000000e+01  7.32677146e-06  7.67109549e-05 
 1.11588399e+01  6.93593869e-06  7.26189540e-05 
 1.24519708e+01  6.56595788e-06  6.87452722e-05 
 1.38949549e+01  6.21571673e-06  6.50782638e-05 
 1.55051578e+01  5.88416229e-06  6.16069042e-05 
 1.73019574e+01  5.57029778e-06  5.83207575e-05 
 1.93069773e+01  5.27317961e-06  5.52099441e-05 
 2.15443469e+01  4.99191454e-06  5.22651120e-05 
 2.40409918e+01  4.72565698e-06  4.94774078e-05 
 2.68269580e+01  4.47360647e-06  4.68384507e-05 
 2.99357729e+01  4.23500524e-06  4.43403070e-05 
 3.34048498e+01  4.00913598e-06  4.19754664e-05 
 3.72759372e+01  3.79531965e-06  3.97368194e-05 
 4.15956216e+01  3.59291342e-06  3.76176357e-05 
 4.64158883e+01  3.40130880e-06  3.56115442e-05 
 5.17947468e+01  3.21992975e-06  3.37125141e-05 
 5.77969288e+01  3.04823098e-06  3.19148360e-05 
 6.44946677e+01  2.88569630e-06  3.02131055e-05 
 7.19685673e+01  2.73183707e-06  2.86022065e-05 
 8.03085722e+01  2.58619074e-06  2.70772962e-05 
 8.96150502e+01  2.44831943e-06  2.56337900e-05 
 1.00000000e+02  2.31780865e-06  2.42673483e-05 
 1.11588399e+02  2.19426605e-06  2.29738631e-05 
 1.24519708e+02  2.07732021e-06  2.17494455e-05 
 1.38949549e+02  1.96661954e-06  2.05904147e-05 
 1.55051578e+02  1.86183123e-06  1.94932860e-05 
 1.73019574e+02  1.76264026e-06  1.84547612e-05 
 1.93069773e+02  1.66874842e-06  1.74717180e-05 
 2.15443469e+02  1.57987342e-06  1.65412009e-05 
 2.40409918e+02  1.49574809e-06  1.56604126e-05 
 2.68269580e+02  1.41611950e-06  1.48267050e-05 
 2.99357729e+02  1.34074826e-06  1.40375716e-05 
 3.34048498e+02  1.26940777e-06  1.32906401e-05 
 3.72759372e+02  1.20188356e-06  1.25836647e-05 
 4.15956216e+02  1.13797260e-06  1.19145200e-05 
 4.64158883e+02  1.07748277e-06  1.12811942e-05 
 5.17947468e+02  1.02023219e-06  1.06817834e-05 
 5.77969288e+02  9.66048741e-07  1.01144852e-05 
 6.44946677e+02  9.14769519e-07  9.57759413e-06 
 7.19685673e+02  8.66240346e-07  9.06949595e-06 
 8.03085722e+02  8.20315312e-07  8.58866299e-06 
 8.96150502e+02  7.76856332e-07  8.13364950e-06 
 1.00000000e+03  7.35732733e-07  7.70308734e-06 
 1.11588399e+03  6.96820859e-07  7.29568184e-06 
 1.24519708e+03  6.60003700e-07  6.91020790e-06 
 1.38949549e+03  6.25170536e-07  6.54550630e-06 
 1.55051578e+03  5.92216610e-07  6.20048023e-06 
 1.73019574e+03  5.61042804e-07  5.87409194e-06 
 1.93069773e+03  5.31555346e-07  5.56535964e-06 
 2.15443469e+03  5.03665526e-07  5.27335452e-06 
 2.40409918e+03  4.77289423e-07  4.99719796e-06 
 2.68269580e+03  4.52347657e-07  4.73605883e-06 
 2.99357729e+03  4.28765144e-07  4.48915102e-06 
 3.34048498e+03  4.06470870e-07  4.25573101e-06 
 3.72759372e+03  3.85397674e-07  4.03509563e-06 
 4.15956216e+03  3.65482042e-07  3.82657990e-06 
 4.64158883e+03  3.46663915e-07  3.62955499e-06 
 5.17947468e+03  3.28886501e-07  3.44342630e-06 
 5.77969288e+03  3.12096100e-07  3.26763158e-06 
 6.44946677e+03  2.96241938e-07  3.10163925e-06 
 7.19685673e+03  2.81276007e-07  2.94494665e-06 
 8.03085722e+03  2.67152915e-07  2.79707852e-06 
 8.96150502e+03  2.53829736e-07  2.65758546e-06 
 1.00000000e+04  2.41265878e-07  2.52604246e-06 
 1.11588399e+04  2.29422949e-07  2.40204754e-06 
 1.24519708e+04  2.18264626e-07  2.28522042e-06 
 1.38949549e+04  2.07756537e-07  2.17520121e-06 
 1.55051578e+04  1.97866141e-07  2.07164923e-06 
 1.73019574e+04  1.88562619e-07  1.97424179e-06 
 1.93069773e+04  1.79816760e-07  1.88267304e-06 
 2.15443469e+04  1.71600859e-07  1.79665294e-06 
 2.40409918e+04  1.63888614e-07  1.71590609e-06 
 2.68269580e+04  1.56655031e-07  1.64017080e-06 
 2.99357729e+04  1.49876327e-07  1.56919807e-06 
 3.34048498e+04  1.43529841e-07  1.50275065e-06 
 3.72759372e+04  1.37593950e-07  1.44060214e-06 
 4.15956216e+04  1.32047987e-07  1.38253614e-06 
 4.64158883e+04  1.26872162e-07  1.32834547e-06 
 5.17947468e+04  1.22047497e-07  1.27783143e-06 
 5.77969288e+04  1.17555757e-07  1.23080309e-06 
 6.44946677e+04  1.13379394e-07  1.18707672e-06 
 7.19685673e+04  1.09501495e-07  1.14647526e-06 
 8.03085722e+04  1.05905742e-07  1.10882783e-06 
 8.96150502e+04  1.02576370e-07  1.07396939e-06 
 1.00000000e+05  9.94981430e-08  1.04174042e-06 
 1.11588399e+05  9.66563340e-08  1.01198671e-06 
 1.24519708e+05  9.40367084e-08  9.84559225e-07 
 1.38949549e+05  9.16255179e-08  9.59314020e-07 
 1.55051578e+05  8.94094989e-08  9.36112217e-07 
 1.73019574e+05  8.73758744e-08  9.14820034e-07 
 1.93069773e+05  8.55123603e-08  8.95308847e-07 
 2.15443469e+05  8.38071728e-08  8.77455267e-07 
 2.40409918e+05  8.22490375e-08  8.61141237e-07 
 2.68269580e+05  8.08271972e-08  8.46254112e-07 
 2.99357729e+05  7.95314197e-08  8.32686736e-07 
 3.34048498e+05  7.83520022e-08  8.20337493e-07 
 3.72759372e+05  7.72797737e-08  8.09110328e-07 
 4.15956216e+05  7.63060941e-08  7.98914734e-07 
 4.64158883e+05  7.54228496e-08  7.89665704e-07 
 5.17947468e+05  7.46224454e-08  7.81283652e-07 
 5.77969288e+05  7.38977941e-08  7.73694287e-07 
 6.44946677e+05  7.32423022e-08  7.66828468e-07 
 7.19685673e+05  7.26498529e-08  7.60622022e-07 
 8.03085722e+05  7.21147875e-08  7.55015536e-07 
 8.96150502e+05  7.16318847e-08  7.49954138e-07 
 1.00000000e+06  7.11963384e-08  7.45387252e-07 
 1.11588399e+06  7.08037345e-08  7.41268348e-07 
 1.24519708e+06  7.04500280e-08  7.37554675e-07 
 1.38949549e+06  7.01315187e-08  7.34207005e-07 
 1.55051578e+06  6.98448283e-08  7.31189353e-07 
 1.73019574e+06  6.95868770e-08  7.28468714e-07 
 1.93069773e+06  6.93548614e-08  7.26014788e-07 
 2.15443469e+06  6.91462325e-08  7.23799711e-07 
 2.40409918e+06  6.89586753e-08  7.21797778e-07 
 2.68269580e+06  6.87900892e-08  7.19985174e-07 
 2.99357729e+06  6.86385690e-08  7.18339685e-07 
 3.34048498e+06  6.85023873e-08  7.16840405e-07 
 3.72759372e+06  6.83799783e-08  7.15467435e-07 
 4.15956216e+06  6.82699213e-08  7.14201545e-07 
 4.64158883e+06  6.81709265e-08  7.13023818e-07 
 5.17947468e+06  6.80818209e-08  7.11915251e-07 
 5.77969288e+06  6.80015345e-08  7.10856298e-07 
 6.44946677e+06  6.79290879e-08  7.09826360e-07 
 7.19685673e+06  6.78635797e-08  7.08803178e-07 
 8.03085722e+06  6.78041738e-08  7.07762134e-07 
 8.96150502e+06  6.77500877e-08  7.06675429e-07 
 1.00000000e+07  6.77005794e-08  7.05511108e-07 
 1.11588399e+07  6.76549339e-08  7.04231919e-07 
 1.24519708e+07  6.76124495e-08  7.02793987e-07 
 1.38949549e+07  6.75724217e-08  7.01145265e-07 
 1.55051578e+07  6.75341258e-08  6.99223784e-07 
 1.73019574e+07  6.74967968e-08  6.96955698e-07 
 1.93069773e+07  6.74596057e-08  6.94253186e-07 
 2.15443469e+07  6.74216326e-08  6.91012313e-07 
 2.40409918e+07  6.73818338e-08  6.87111029e-07 
 2.68269580e+07  6.73390029e-08  6.82407611e-07 
 2.99357729e+07  6.72917241e-08  6.76739958e-07 
 3.34048498e+07  6.72383169e-08  6.69926351e-07 
 3.72759372e+07  6.71767691e-08  6.61768401e-07 
 4.15956216e+07  6.71046579e-08  6.52057031e-07 
 4.64158883e+07  6.70190563e-08  6.40582304e-07 
 5.17947468e+07  6.69164249e-08  6.27147605e-07 
 5.77969288e+07  6.67924877e-08  6.11588076e-07 
 6.44946677e+07  6.66420931e-08  5.93792218e-07 
 7.19685673e+07  6.64590652e-08  5.73724253e-07 
 8.03085722e+07  6.62360513e-08  5.51443662e-07 
 8.96150502e+07  6.59643810e-08  5.27117612e-07 
 1.00000000e+08  6.56339573e-08  5.01022416e-07 
