 frequency       AmagdB          Aphdeg         
 1.00000000e+01  7.04865339e+01 -1.67536340e+00 
 1.05776756e+01  7.04860928e+01 -1.77208505e+00 
 1.11887221e+01  7.04855993e+01 -1.87438308e+00 
 1.18350673e+01  7.04850472e+01 -1.98257760e+00 
 1.25187503e+01  7.04844295e+01 -2.09700686e+00 
 1.32419279e+01  7.04837385e+01 -2.21802819e+00 
 1.40068818e+01  7.04829656e+01 -2.34601907e+00 
 1.48160252e+01  7.04821008e+01 -2.48137816e+00 
 1.56719108e+01  7.04811336e+01 -2.62452644e+00 
 1.65772389e+01  7.04800515e+01 -2.77590835e+00 
 1.75348655e+01  7.04788412e+01 -2.93599299e+00 
 1.85478119e+01  7.04774874e+01 -3.10527539e+00 
 1.96192737e+01  7.04759732e+01 -3.28427775e+00 
 2.07526313e+01  7.04742796e+01 -3.47355077e+00 
 2.19514602e+01  7.04723854e+01 -3.67367500e+00 
 2.32195425e+01  7.04702671e+01 -3.88526222e+00 
 2.45608788e+01  7.04678982e+01 -4.10895680e+00 
 2.59797009e+01  7.04652492e+01 -4.34543711e+00 
 2.74804848e+01  7.04622872e+01 -4.59541688e+00 
 2.90679654e+01  7.04589756e+01 -4.85964658e+00 
 3.07471508e+01  7.04552733e+01 -5.13891473e+00 
 3.25233387e+01  7.04511346e+01 -5.43404915e+00 
 3.44021326e+01  7.04465086e+01 -5.74591811e+00 
 3.63894599e+01  7.04413385e+01 -6.07543139e+00 
 3.84915902e+01  7.04355611e+01 -6.42354111e+00 
 4.07151555e+01  7.04291061e+01 -6.79124241e+00 
 4.30671707e+01  7.04218951e+01 -7.17957386e+00 
 4.55550561e+01  7.04138410e+01 -7.58961747e+00 
 4.81866605e+01  7.04048473e+01 -8.02249840e+00 
 5.09702863e+01  7.03948065e+01 -8.47938411e+00 
 5.39147154e+01  7.03835995e+01 -8.96148298e+00 
 5.70292370e+01  7.03710945e+01 -9.47004218e+00 
 6.03236769e+01  7.03571456e+01 -1.00063448e+01 
 6.38084285e+01  7.03415915e+01 -1.05717059e+01 
 6.74944857e+01  7.03242542e+01 -1.11674676e+01 
 7.13934775e+01  7.03049376e+01 -1.17949930e+01 
 7.55177045e+01  7.02834262e+01 -1.24556582e+01 
 7.98801781e+01  7.02594834e+01 -1.31508430e+01 
 8.44946611e+01  7.02328499e+01 -1.38819203e+01 
 8.93757115e+01  7.02032428e+01 -1.46502420e+01 
 9.45387283e+01  7.01703537e+01 -1.54571247e+01 
 1.00000000e+02  7.01338479e+01 -1.63038312e+01 
 1.05776756e+02  7.00933631e+01 -1.71915508e+01 
 1.11887221e+02  7.00485086e+01 -1.81213763e+01 
 1.18350673e+02  6.99988653e+01 -1.90942788e+01 
 1.25187503e+02  6.99439852e+01 -2.01110804e+01 
 1.32419279e+02  6.98833924e+01 -2.11724235e+01 
 1.40068818e+02  6.98165841e+01 -2.22787395e+01 
 1.48160252e+02  6.97430325e+01 -2.34302155e+01 
 1.56719108e+02  6.96621877e+01 -2.46267604e+01 
 1.65772389e+02  6.95734817e+01 -2.58679714e+01 
 1.75348655e+02  6.94763324e+01 -2.71531017e+01 
 1.85478119e+02  6.93701501e+01 -2.84810317e+01 
 1.96192737e+02  6.92543442e+01 -2.98502434e+01 
 2.07526313e+02  6.91283305e+01 -3.12588009e+01 
 2.19514602e+02  6.89915401e+01 -3.27043391e+01 
 2.32195425e+02  6.88434289e+01 -3.41840602e+01 
 2.45608788e+02  6.86834870e+01 -3.56947413e+01 
 2.59797009e+02  6.85112487e+01 -3.72327526e+01 
 2.74804848e+02  6.83263020e+01 -3.87940881e+01 
 2.90679654e+02  6.81282976e+01 -4.03744074e+01 
 3.07471508e+02  6.79169571e+01 -4.19690890e+01 
 3.25233387e+02  6.76920793e+01 -4.35732935e+01 
 3.44021326e+02  6.74535452e+01 -4.51820345e+01 
 3.63894599e+02  6.72013211e+01 -4.67902551e+01 
 3.84915902e+02  6.69354592e+01 -4.83929072e+01 
 4.07151555e+02  6.66560966e+01 -4.99850299e+01 
 4.30671707e+02  6.63634516e+01 -5.15618256e+01 
 4.55550561e+02  6.60578187e+01 -5.31187290e+01 
 4.81866605e+02  6.57395612e+01 -5.46514686e+01 
 5.09702863e+02  6.54091036e+01 -5.61561174e+01 
 5.39147154e+02  6.50669220e+01 -5.76291322e+01 
 5.70292370e+02  6.47135344e+01 -5.90673822e+01 
 6.03236769e+02  6.43494912e+01 -6.04681641e+01 
 6.38084285e+02  6.39753653e+01 -6.18292077e+01 
 6.74944857e+02  6.35917429e+01 -6.31486705e+01 
 7.13934775e+02  6.31992152e+01 -6.44251245e+01 
 7.55177045e+02  6.27983708e+01 -6.56575350e+01 
 7.98801781e+02  6.23897890e+01 -6.68452345e+01 
 8.44946611e+02  6.19740344e+01 -6.79878932e+01 
 8.93757115e+02  6.15516524e+01 -6.90854857e+01 
 9.45387283e+02  6.11231657e+01 -7.01382578e+01 
 1.00000000e+03  6.06890712e+01 -7.11466927e+01 
 1.05776756e+03  6.02498391e+01 -7.21114780e+01 
 1.11887221e+03  5.98059110e+01 -7.30334743e+01 
 1.18350673e+03  5.93577001e+01 -7.39136854e+01 
 1.25187503e+03  5.89055906e+01 -7.47532317e+01 
 1.32419279e+03  5.84499390e+01 -7.55533249e+01 
 1.40068818e+03  5.79910741e+01 -7.63152464e+01 
 1.48160252e+03  5.75292988e+01 -7.70403271e+01 
 1.56719108e+03  5.70648908e+01 -7.77299308e+01 
 1.65772389e+03  5.65981042e+01 -7.83854390e+01 
 1.75348655e+03  5.61291711e+01 -7.90082384e+01 
 1.85478119e+03  5.56583026e+01 -7.95997100e+01 
 1.96192737e+03  5.51856908e+01 -8.01612204e+01 
 2.07526313e+03  5.47115100e+01 -8.06941146e+01 
 2.19514602e+03  5.42359180e+01 -8.11997094e+01 
 2.32195425e+03  5.37590575e+01 -8.16792896e+01 
 2.45608788e+03  5.32810577e+01 -8.21341038e+01 
 2.59797009e+03  5.28020349e+01 -8.25653616e+01 
 2.74804848e+03  5.23220941e+01 -8.29742323e+01 
 2.90679654e+03  5.18413298e+01 -8.33618433e+01 
 3.07471508e+03  5.13598271e+01 -8.37292791e+01 
 3.25233387e+03  5.08776625e+01 -8.40775817e+01 
 3.44021326e+03  5.03949049e+01 -8.44077505e+01 
 3.63894599e+03  4.99116159e+01 -8.47207427e+01 
 3.84915902e+03  4.94278511e+01 -8.50174743e+01 
 4.07151555e+03  4.89436601e+01 -8.52988208e+01 
 4.30671707e+03  4.84590877e+01 -8.55656184e+01 
 4.55550561e+03  4.79741737e+01 -8.58186653e+01 
 4.81866605e+03  4.74889542e+01 -8.60587230e+01 
 5.09702863e+03  4.70034611e+01 -8.62865177e+01 
 5.39147154e+03  4.65177234e+01 -8.65027416e+01 
 5.70292370e+03  4.60317666e+01 -8.67080546e+01 
 6.03236769e+03  4.55456141e+01 -8.69030855e+01 
 6.38084285e+03  4.50592863e+01 -8.70884336e+01 
 6.74944857e+03  4.45728018e+01 -8.72646702e+01 
 7.13934775e+03  4.40861771e+01 -8.74323398e+01 
 7.55177045e+03  4.35994270e+01 -8.75919616e+01 
 7.98801781e+03  4.31125648e+01 -8.77440312e+01 
 8.44946611e+03  4.26256022e+01 -8.78890213e+01 
 8.93757115e+03  4.21385500e+01 -8.80273835e+01 
 9.45387283e+03  4.16514174e+01 -8.81595494e+01 
 1.00000000e+04  4.11642130e+01 -8.82859317e+01 
 1.05776756e+04  4.06769444e+01 -8.84069258e+01 
 1.11887221e+04  4.01896182e+01 -8.85229102e+01 
 1.18350673e+04  3.97022405e+01 -8.86342483e+01 
 1.25187503e+04  3.92148168e+01 -8.87412894e+01 
 1.32419279e+04  3.87273517e+01 -8.88443693e+01 
 1.40068818e+04  3.82398496e+01 -8.89438116e+01 
 1.48160252e+04  3.77523143e+01 -8.90399288e+01 
 1.56719108e+04  3.72647492e+01 -8.91330230e+01 
 1.65772389e+04  3.67771573e+01 -8.92233870e+01 
 1.75348655e+04  3.62895413e+01 -8.93113052e+01 
 1.85478119e+04  3.58019036e+01 -8.93970542e+01 
 1.96192737e+04  3.53142463e+01 -8.94809039e+01 
 2.07526313e+04  3.48265713e+01 -8.95631185e+01 
 2.19514602e+04  3.43388801e+01 -8.96439569e+01 
 2.32195425e+04  3.38511743e+01 -8.97236737e+01 
 2.45608788e+04  3.33634550e+01 -8.98025203e+01 
 2.59797009e+04  3.28757234e+01 -8.98807450e+01 
 2.74804848e+04  3.23879804e+01 -8.99585945e+01 
 2.90679654e+04  3.19002268e+01 -9.00363141e+01 
 3.07471508e+04  3.14124632e+01 -9.01141489e+01 
 3.25233387e+04  3.09246900e+01 -9.01923443e+01 
 3.44021326e+04  3.04369079e+01 -9.02711467e+01 
 3.63894599e+04  2.99491169e+01 -9.03508048e+01 
 3.84915902e+04  2.94613174e+01 -9.04315696e+01 
 4.07151555e+04  2.89735093e+01 -9.05136959e+01 
 4.30671707e+04  2.84856926e+01 -9.05974426e+01 
 4.55550561e+04  2.79978672e+01 -9.06830738e+01 
 4.81866605e+04  2.75100328e+01 -9.07708595e+01 
 5.09702863e+04  2.70221891e+01 -9.08610765e+01 
 5.39147154e+04  2.65343355e+01 -9.09540092e+01 
 5.70292370e+04  2.60464715e+01 -9.10499505e+01 
 6.03236769e+04  2.55585962e+01 -9.11492031e+01 
 6.38084285e+04  2.50707088e+01 -9.12520796e+01 
 6.74944857e+04  2.45828083e+01 -9.13589044e+01 
 7.13934775e+04  2.40948935e+01 -9.14700141e+01 
 7.55177045e+04  2.36069629e+01 -9.15857588e+01 
 7.98801781e+04  2.31190150e+01 -9.17065032e+01 
 8.44946611e+04  2.26310480e+01 -9.18326275e+01 
 8.93757115e+04  2.21430598e+01 -9.19645291e+01 
 9.45387283e+04  2.16550482e+01 -9.21026231e+01 
 1.00000000e+05  2.11670104e+01 -9.22473443e+01 
 1.05776756e+05  2.06789436e+01 -9.23991481e+01 
 1.11887221e+05  2.01908445e+01 -9.25585120e+01 
 1.18350673e+05  1.97027094e+01 -9.27259372e+01 
 1.25187503e+05  1.92145340e+01 -9.29019500e+01 
 1.32419279e+05  1.87263139e+01 -9.30871033e+01 
 1.40068818e+05  1.82380436e+01 -9.32819787e+01 
 1.48160252e+05  1.77497173e+01 -9.34871878e+01 
 1.56719108e+05  1.72613286e+01 -9.37033742e+01 
 1.65772389e+05  1.67728700e+01 -9.39312156e+01 
 1.75348655e+05  1.62843333e+01 -9.41714254e+01 
 1.85478119e+05  1.57957094e+01 -9.44247553e+01 
 1.96192737e+05  1.53069879e+01 -9.46919972e+01 
 2.07526313e+05  1.48181574e+01 -9.49739855e+01 
 2.19514602e+05  1.43292049e+01 -9.52715995e+01 
 2.32195425e+05  1.38401162e+01 -9.55857660e+01 
 2.45608788e+05  1.33508751e+01 -9.59174618e+01 
 2.59797009e+05  1.28614637e+01 -9.62677164e+01 
 2.74804848e+05  1.23718619e+01 -9.66376146e+01 
 2.90679654e+05  1.18820473e+01 -9.70282997e+01 
 3.07471508e+05  1.13919949e+01 -9.74409761e+01 
 3.25233387e+05  1.09016768e+01 -9.78769127e+01 
 3.44021326e+05  1.04110617e+01 -9.83374454e+01 
 3.63894599e+05  9.92011481e+00 -9.88239809e+01 
 3.84915902e+05  9.42879740e+00 -9.93379993e+01 
 4.07151555e+05  8.93706616e+00 -9.98810578e+01 
 4.30671707e+05  8.44487284e+00 -1.00454793e+02 
 4.55550561e+05  7.95216370e+00 -1.01060926e+02 
 4.81866605e+05  7.45887892e+00 -1.01701261e+02 
 5.09702863e+05  6.96495190e+00 -1.02377694e+02 
 5.39147154e+05  6.47030860e+00 -1.03092211e+02 
 5.70292370e+05  5.97486674e+00 -1.03846892e+02 
 6.03236769e+05  5.47853494e+00 -1.04643912e+02 
 6.38084285e+05  4.98121185e+00 -1.05485545e+02 
 6.74944857e+05  4.48278514e+00 -1.06374161e+02 
 7.13934775e+05  3.98313044e+00 -1.07312229e+02 
 7.55177045e+05  3.48211029e+00 -1.08302316e+02 
 7.98801781e+05  2.97957290e+00 -1.09347084e+02 
 8.44946611e+05  2.47535094e+00 -1.10449288e+02 
 8.93757115e+05  1.96926033e+00 -1.11611771e+02 
 9.45387283e+05  1.46109888e+00 -1.12837459e+02 
 1.00000000e+06  9.50645058e-01 -1.14129351e+02 
 1.05776756e+06  4.37656699e-01 -1.15490509e+02 
 1.11887221e+06 -7.81301603e-02 -1.16924048e+02 
 1.18350673e+06 -5.97002368e-01 -1.18433115e+02 
 1.25187503e+06 -1.11927058e+00 -1.20020875e+02 
 1.32419279e+06 -1.64526991e+00 -1.21690488e+02 
 1.40068818e+06 -2.17536032e+00 -1.23445081e+02 
 1.48160252e+06 -2.70992658e+00 -1.25287720e+02 
 1.56719108e+06 -3.24937776e+00 -1.27221376e+02 
 1.65772389e+06 -3.79414603e+00 -1.29248889e+02 
 1.75348655e+06 -4.34468493e+00 -1.31372925e+02 
 1.85478119e+06 -4.90146661e+00 -1.33595931e+02 
 1.96192737e+06 -5.46497828e+00 -1.35920089e+02 
 2.07526313e+06 -6.03571758e+00 -1.38347263e+02 
 2.19514602e+06 -6.61418684e+00 -1.40878949e+02 
 2.32195425e+06 -7.20088623e+00 -1.43516218e+02 
 2.45608788e+06 -7.79630577e+00 -1.46259669e+02 
 2.59797009e+06 -8.40091618e+00 -1.49109373e+02 
 2.74804848e+06 -9.01515884e+00 -1.52064826e+02 
 2.90679654e+06 -9.63943489e+00 -1.55124911e+02 
 3.07471508e+06 -1.02740938e+01 -1.58287854e+02 
 3.25233387e+06 -1.09194216e+01 -1.61551199e+02 
 3.44021326e+06 -1.15756292e+01 -1.64911783e+02 
 3.63894599e+06 -1.22428415e+01 -1.68365726e+02 
 3.84915902e+06 -1.29210870e+01 -1.71908429e+02 
 4.07151555e+06 -1.36102887e+01 -1.75534575e+02 
 4.30671707e+06 -1.43102568e+01 -1.79238151e+02 
 4.55550561e+06 -1.50206835e+01  1.76987531e+02 
 4.81866605e+06 -1.57411396e+01  1.73149798e+02 
 5.09702863e+06 -1.64710734e+01  1.69256572e+02 
 5.39147154e+06 -1.72098117e+01  1.65316318e+02 
 5.70292370e+06 -1.79565637e+01  1.61337984e+02 
 6.03236769e+06 -1.87104257e+01  1.57330922e+02 
 6.38084285e+06 -1.94703889e+01  1.53304813e+02 
 6.74944857e+06 -2.02353476e+01  1.49269564e+02 
 7.13934775e+06 -2.10041096e+01  1.45235205e+02 
 7.55177045e+06 -2.17754067e+01  1.41211767e+02 
 7.98801781e+06 -2.25479069e+01  1.37209155e+02 
 8.44946611e+06 -2.33202263e+01  1.33237010e+02 
 8.93757115e+06 -2.40909417e+01  1.29304563e+02 
 9.45387283e+06 -2.48586033e+01  1.25420497e+02 
 1.00000000e+07 -2.56217473e+01  1.21592803e+02 
 1.05776756e+07 -2.63789086e+01  1.17828660e+02 
 1.11887221e+07 -2.71286326e+01  1.14134318e+02 
 1.18350673e+07 -2.78694871e+01  1.10515015e+02 
 1.25187503e+07 -2.86000734e+01  1.06974914e+02 
 1.32419279e+07 -2.93190366e+01  1.03517074e+02 
 1.40068818e+07 -3.00250748e+01  1.00143452e+02 
 1.48160252e+07 -3.07169480e+01  9.68549411e+01 
 1.56719108e+07 -3.13934853e+01  9.36514369e+01 
 1.65772389e+07 -3.20535911e+01  9.05319330e+01 
 1.75348655e+07 -3.26962507e+01  8.74946412e+01 
 1.85478119e+07 -3.33205340e+01  8.45371299e+01 
 1.96192737e+07 -3.39255994e+01  8.16564742e+01 
 2.07526313e+07 -3.45106963e+01  7.88494123e+01 
 2.19514602e+07 -3.50751670e+01  7.61125005e+01 
 2.32195425e+07 -3.56184489e+01  7.34422620e+01 
 2.45608788e+07 -3.61400755e+01  7.08353232e+01 
 2.59797009e+07 -3.66396783e+01  6.82885335e+01 
 2.74804848e+07 -3.71169880e+01  6.57990650e+01 
 2.90679654e+07 -3.75718353e+01  6.33644888e+01 
 3.07471508e+07 -3.80041524e+01  6.09828280e+01 
 3.25233387e+07 -3.84139727e+01  5.86525853e+01 
 3.44021326e+07 -3.88014313e+01  5.63727479e+01 
 3.63894599e+07 -3.91667631e+01  5.41427696e+01 
 3.84915902e+07 -3.95103006e+01  5.19625340e+01 
 4.07151555e+07 -3.98324704e+01  4.98323016e+01 
 4.30671707e+07 -4.01337880e+01  4.77526455e+01 
 4.55550561e+07 -4.04148508e+01  4.57243783e+01 
 4.81866605e+07 -4.06763308e+01  4.37484760e+01 
 5.09702863e+07 -4.09189649e+01  4.18260019e+01 
 5.39147154e+07 -4.11435452e+01  3.99580344e+01 
 5.70292370e+07 -4.13509079e+01  3.81456014e+01 
 6.03236769e+07 -4.15419224e+01  3.63896233e+01 
 6.38084285e+07 -4.17174802e+01  3.46908670e+01 
 6.74944857e+07 -4.18784842e+01  3.30499093e+01 
 7.13934775e+07 -4.20258384e+01  3.14671130e+01 
 7.55177045e+07 -4.21604389e+01  2.99426113e+01 
 7.98801781e+07 -4.22831652e+01  2.84763035e+01 
 8.44946611e+07 -4.23948739e+01  2.70678572e+01 
 8.93757115e+07 -4.24963916e+01  2.57167176e+01 
 9.45387283e+07 -4.25885114e+01  2.44221224e+01 
 1.00000000e+08 -4.26719882e+01  2.31831198e+01 
